   0.0858208   0.9963112  -0.9963112   0.0858208     342.263    2006.328
   0.0858208   0.9963112  -0.9963112   0.0858208     -94.252     -32.178
   0.0855318   0.9963359  -0.9963359   0.0855318     -81.650     -42.576
   0.0852717   0.9963582  -0.9963582   0.0852717    -100.175     -37.209
   0.0850350   0.9963784  -0.9963784   0.0850350     -86.488     -43.652
   0.0848175   0.9963970  -0.9963970   0.0848175    -100.215     -36.456
   0.0846161   0.9964141  -0.9964141   0.0846161     -82.824     -43.205
   0.0844278   0.9964301  -0.9964301   0.0844278     -97.447     -41.369
   0.0842504   0.9964451  -0.9964451   0.0842504     -77.599     -46.584
   0.0840823   0.9964593  -0.9964593   0.0840823     -93.617     -43.420
   0.0839221   0.9964729  -0.9964729   0.0839221     -71.658     -49.658
   0.0837680   0.9964857  -0.9964857   0.0837680     -86.809     -49.170
   0.0836190   0.9964983  -0.9964983   0.0836190     -64.179     -53.573
   0.0834743   0.9965105  -0.9965105   0.0834743     -83.222     -48.879
   0.0833327   0.9965222  -0.9965222   0.0833327     -60.024     -52.030
   0.0831933   0.9965340  -0.9965340   0.0831933     -63.890     -47.364
   0.0830556   0.9965455  -0.9965455   0.0830556     -60.374     -51.967
   0.0829185   0.9965568  -0.9965568   0.0829185     -40.447     -47.605
   0.0827816   0.9965682  -0.9965682   0.0827816     -43.260     -49.183
   0.0826436   0.9965796  -0.9965796   0.0826436     -16.688     -51.380
   0.0825045   0.9965912  -0.9965912   0.0825045       2.012     -47.517
   0.0823628   0.9966029  -0.9966029   0.0823628      28.387     -50.181
   0.0822180   0.9966148  -0.9966148   0.0822180      47.125     -51.207
   0.0820690   0.9966271  -0.9966271   0.0820690      41.853     -51.765
   0.0819148   0.9966398  -0.9966398   0.0819148      63.610     -51.551
   0.0817542   0.9966530  -0.9966530   0.0817542      54.633     -53.580
   0.0815860   0.9966668  -0.9966668   0.0815860      78.633     -54.550
   0.0814086   0.9966814  -0.9966814   0.0814086      78.915     -55.558
   0.0812201   0.9966967  -0.9966967   0.0812201      94.016     -56.517
   0.0810183   0.9967131  -0.9967131   0.0810183      98.851     -53.532
   0.0808005   0.9967309  -0.9967309   0.0808005     107.764     -60.464
   0.0805634   0.9967500  -0.9967500   0.0805634     100.368     -56.331
   0.0803028   0.9967711  -0.9967711   0.0803028     116.979     -57.122
   0.0800133   0.9967943  -0.9967943   0.0800133     107.352     -48.290
   0.0796880   0.9968204  -0.9968204   0.0796880     127.756     -59.941
   0.0793177   0.9968499  -0.9968499   0.0793177     113.708     -49.867
   0.0788898   0.9968837  -0.9968837   0.0788898     134.494     -60.616
   0.0783865   0.9969236  -0.9969236   0.0783865     114.061     -49.274
   0.0777826   0.9969709  -0.9969709   0.0777826     129.722     -63.913
   0.0770403   0.9970284  -0.9970284   0.0770403     110.685     -50.748
   0.0760996   0.9971007  -0.9971007   0.0760996     127.984     -63.963
